           Grids/Ang        Potential/cm-1 Eigenvectors shifted
          0.83625000       62750.91298887        1258.37754113        3702.25294772        6070.89763551        8364.05871895       10583.36092999       12726.55885869       14799.36139400       16793.38472267 
          0.89531250       37956.27375399        1258.65682493        3701.28345813        6073.22867358        8359.58610645       10591.42505875       12714.28169676       14816.88388347       16769.35372034 
          0.95437500       22174.12029826        1261.93824404        3690.98927013        6095.57105981        8320.94045213       10654.14610119       12628.47286988       14926.72369327       16634.54372717 
          1.01343750       12279.54936599        1282.51680489        3634.80065623        6200.97270077        8164.74355243       10868.91844094       12383.17564749       15183.63914502       16383.79836230 
          1.07250000        6227.84472398        1357.54922508        3467.70666396        6448.92603279        7887.92783500       11131.33053535       12214.70761903       15221.26872366       16492.32865760 
          1.13156250        2693.58283249        1525.92354663        3201.69480744        6681.80127623        7824.48906451       10951.94889401       12617.18078373       14679.72361857       17071.14034199 
          1.19062500         824.05905662        1762.56033154        3043.49076189        6530.60679778        8292.01885100       10306.59196378       13157.23723132       14414.35833255       17009.28407390 
          1.24968750          72.46270418        1954.98737547        3237.83154776        5958.03412386        8831.30131862       10137.69976234       12855.30170073       14986.69020932       16443.61919524 
          1.30875000          86.75015381        1991.54504541        3742.02943674        5513.62315122        8695.32969318       10749.31477288       12297.82920977       15121.53993481       16764.00325013 
          1.36781250         637.13483481        1864.37703340        4224.56596578        5669.97625356        8078.15027168       11073.61538826       12616.34902728       14511.65022895       17167.38965168 
          1.42687500        1569.75444190        1661.59015294        4412.84295510        6233.93560423        7837.71863960       10568.41299442       13167.21558008       14531.64025753       16653.88447455 
          1.48593750        2777.75056664        1478.80832015        4311.11187367        6680.97390044        8240.48222316       10064.81735912       12909.33461304       15130.39058151       16456.28550956 
          1.54500000        4183.61084812        1359.11680943        4091.99226986        6758.83715006        8792.40064386       10265.43997099       12322.53569560       15090.53810613       17019.35341572 
          1.60406250        5728.59462320        1297.44293758        3901.14168472        6581.65258042        9029.87638311       10854.04776037       12320.48223634       14512.00781205       17144.96578176 
          1.66312500        7366.27732342        1271.39979533        3786.13794092        6358.66956274        8933.57636187       11226.22679297       12842.53356622       14358.55481784       16612.84669409 
          1.72218750        9058.98346762        1262.14937235        3732.22255117        6201.61822335        8715.44397585       11214.08017486       13279.96864363       14793.61272474       16349.50199410 
          1.78125000       10779.34572799        1259.33205508        3711.50358800        6120.44709261        8535.10801093       11005.99960226       13348.57601196       15261.60623756       16697.36308673 
          1.84031250       12506.11044109        1258.58511445        3704.77332580        6086.90811539        8432.89868392       10801.99723069       13177.44488689       15397.27641077       17178.30039619 
          1.89937500       14218.06354458        1258.41057114        3702.88603452        6075.34336551        8387.71788358       10675.69797002       12974.53121548       15266.09411581       17371.64032651 
          1.95843750       15897.96187303        1258.37423198        3702.42174853        6071.92402244        8371.23645380       10616.17403629       12837.49642094       15070.32789992       17280.50684042 
          2.01750000       17532.41051500        1258.36742580        3702.32021807        6071.04004151        8366.10802109       10593.24736477       12768.74361921       14925.80973144       17094.04728979 
          2.07656250       19110.94651775        1258.36626895        3702.30025866        6070.83712672        8364.71580099       10585.74540815       12740.79914068       14848.58857940       16942.64176694 
          2.13562500       20625.56921091        1258.36608906        3702.29669652        6070.79527493        8364.38035768       10583.60676712       12731.18104115       14815.44207045       16856.28373948 
          2.19468750       22070.40515155        1258.36606329        3702.29611500        6070.78741483        8364.30770283       10583.06544963       12728.29895540       14803.42436913       16817.03944894 
          2.25375000       23441.41277829        1258.36605987        3702.29602661        6070.78607651        8364.29334621       10582.94221920       12727.53141552       14799.63077093       16802.00330373 
          2.31281250       24736.11157060        1258.36605943        3702.29601508        6070.78584965        8364.29076038       10582.91622000       12727.34463526       14798.54294386       16796.84180340 
