           Grids/Ang        Potential/cm-1 Eigenvectors shifted
          0.65906250      251524.14552262        1258.36605909        3702.29601318        6070.78582263        8364.29023484       10582.91074614       12727.29752991       14798.22564321       16795.05895380 
          0.71812500      160676.84073602        1258.36606070        3702.29600880        6070.78582564        8364.29025709       10582.91063291       12727.29785204       14798.22494327       16795.06019343 
          0.77718750      101289.23066609        1258.36624918        3702.29525479        6070.78791647        8364.28562655       10582.92025733       12727.28099527       14798.25249441       16795.01725856 
          0.83625000       62750.91298887        1258.37756472        3702.25285043        6070.89791317        8364.05808444       10583.36228151       12726.55640121       14799.36540416       16793.37559820 
          0.89531250       37956.27375399        1258.65682107        3701.28347362        6073.22863034        8359.58620054       10591.42485885       12714.28202368       14816.88322436       16769.35288374 
          0.95437500       22174.12029826        1261.93824650        3690.98925988        6095.57108897        8320.94038346       10654.14624413       12628.47258401       14926.72388043       16634.54553910 
          1.01343750       12279.54936599        1282.51680331        3634.80066258        6200.97268165        8164.74359512       10868.91834295       12383.17580220       15183.63825913       16383.80955656 
          1.07250000        6227.84472398        1357.54922614        3467.70665894        6448.92604507        7887.92780548       11131.33059292       12214.70748294       15221.26824287       16492.33523022 
          1.13156250        2693.58283249        1525.92354567        3201.69481016        6681.80126425        7824.48909053       10951.94883310       12617.18087449       14679.72353260       17071.12924516 
          1.19062500         824.05905662        1762.56033190        3043.49075842        6530.60680358        8292.01883362       10306.59199980       13157.23714197       14414.35885988       17009.27452709 
          1.24968750          72.46270418        1954.98737464        3237.83154910        5958.03411817        8831.30132802       10137.69973686       12855.30173780       14986.68979838       16443.62832960 
          1.30875000          86.75015381        1991.54504540        3742.02943523        5513.62315719        8695.32967917       10749.31479070       12297.82915366       15121.53943397       16764.00104266 
          1.36781250         637.13483481        1864.37703279        4224.56596768        5669.97625112        8078.15028056       11073.61535985       12616.34905732       14511.65050038       17167.37558915 
          1.42687500        1569.75444190        1661.59015297        4412.84295502        6233.93560645        7837.71863570       10568.41300296       13167.21553273       14531.64053297       16653.88656891 
          1.48593750        2777.75056664        1478.80831985        4311.11187525        6680.97389607        8240.48222879       10064.81735117       12909.33461998       15130.39003541       16456.29385296 
          1.54500000        4183.61084812        1359.11680954        4091.99226968        6758.83714963        8792.40063576       10265.43998166       12322.53566078       15090.53759908       17019.34287651 
          1.60406250        5728.59462320        1297.44293742        3901.14168551        6581.65257703        9029.87638129       10854.04774682       12320.48225024       14512.00813816       17144.95278893 
          1.66312500        7366.27732342        1271.39979544        3786.13794054        6358.66956296        8933.57635374       11226.22678631       12842.53353616       14358.55528140       16612.85031903 
          1.72218750        9058.98346762        1262.14937225        3732.22255158        6201.61822160        8715.44397500       11214.08015718       13279.96864447       14793.61266393       16349.51393737 
          1.78125000       10779.34572799        1259.33205516        3711.50358764        6120.44709322        8535.10800640       11005.99959574       13348.57597376       15261.60543894       16697.36212541 
          1.84031250       12506.11044109        1258.58511438        3704.77332607        6086.90811431        8432.89868444       10801.99722062       13177.44488680       15397.27558219       17178.28532239 
          1.89937500       14218.06354458        1258.41057121        3702.88603423        6075.34336602        8387.71788067       10675.69796677       12974.53117987       15266.09332874       17371.61895787 
          1.95843750       15897.96187303        1258.37423192        3702.42174873        6071.92402162        8371.23645435       10616.17403087       12837.49643098       15070.32763122       17280.49119785 
          2.01750000       17532.41051500        1258.36742585        3702.32021784        6071.04004185        8366.10801868       10593.24736121       12768.74358406       14925.80943766       17094.03705965 
          2.07656250       19110.94651775        1258.36626891        3702.30025881        6070.83712606        8364.71580138       10585.74540625       12740.79917731       14848.58892946       16942.64093419 
          2.13562500       20625.56921091        1258.36608910        3702.29669633        6070.79527513        8364.38035552       10583.60676315       12731.18102725       14815.44232876       16856.28671441 
          2.19468750       22070.40515155        1258.36606325        3702.29611512        6070.78741440        8364.30770376       10583.06546550       12728.29919278       14803.42695851       16817.06239327 
          2.25375000       23441.41277829        1258.36605990        3702.29602645        6070.78607679        8364.29334630       10582.94225785       12727.53193412       14799.63666755       16802.05635433 
          2.31281250       24736.11157060        1258.36605940        3702.29601510        6070.78585205        8364.29077951       10582.91656664       12727.34809524       14798.57324462       16797.06045258 
          2.37187500       25953.33471032        1258.36605942        3702.29601252        6070.78582980        8364.29031907       10582.91176016       12727.30758394       14798.30421812       16795.57922571 
          2.43093750       27093.00855471        1258.36605933        3702.29601344        6070.78581543        8364.29027795       10582.91079590       12727.29955418       14798.24060584       16795.17452943 
