           Grids/Ang        Potential/cm-1 Eigenvectors shifted
          0.81465517       69304.32476833        1486.85419347        4369.69693526        7131.39911811        9771.94877722       12291.33921140       14689.56233993 
          0.82931034       62965.87666111        1486.85763082        4369.68211503        7131.35728322        9771.85350856       12291.15154957       14689.23109306 
          0.84396552       57090.12627078        1486.86510290        4369.65067686        7131.27065166        9771.66084458       12290.78075108       14688.59129184 
          0.85862069       51649.65427694        1486.88164640        4369.58270187        7131.08767792        9771.26323244       12290.03277868       14687.32934177 
          0.87327586       46617.21775093        1486.91697711        4369.44105828        7130.71559166        9770.47397435       12288.58313741       14684.94065465 
          0.88793103       41968.69170560        1486.98956526        4369.15745798        7129.98948017        9768.97259708       12285.89461332       14680.62069665 
          0.90258621       37679.64612815        1487.13287468        4368.61266973        7128.63230482        9766.24212783       12281.13705587       14673.18217524 
          0.91724138       33728.73015387        1487.40502049        4367.60779963        7126.20120535        9761.49302506       12273.10396377       14660.99168257 
          0.93189655       30094.17590112        1487.90249886        4365.82712421        7122.02663390        9753.59415666       12260.16901906       14641.99896011 
          0.94655172       26756.97710610        1488.77864288        4362.79366511        7115.15247069        9741.03153644       12240.31811196       14613.90428825 
          0.96120690       23697.86019230        1490.26647330        4357.82319231        7104.29603162        9721.93357337       12211.31552958       14574.53258069 
          0.97586207       20899.80934903        1492.70453253        4349.98603102        7087.85211228        9694.20186786       12171.04553015       14522.43095141 
          0.99051724       18345.86762347        1496.56253008        4338.09107690        7063.97121858        9655.78556599       12118.05070470       14457.65830407 
          1.00517241       16020.71800385        1502.46179247        4320.70949258        7030.73910513        9605.11404433       12052.22992311       14382.63446636 
          1.01982759       13909.53701193        1511.18385280        4296.25597999        6986.47361781        9541.66654180       11975.59145401       14302.83041909 
          1.03448276       11998.47026515        1523.65955704        4263.14126574        6930.13191051        9466.60467491       11892.87981658       14227.00970008 
          1.04913793       10274.61681822        1540.93159607        4219.99933485        6861.78930188        9383.34064866       11811.84752765       14166.74246927 
          1.06379310        8725.46518128        1564.08561442        4165.97765253        6783.11527032        9297.87289259       11742.94201848       14135.01319306 
          1.07844828        7339.75713040        1594.14918244        4101.06048988        6697.74354253        9218.71676880       11698.25845350       14143.95942954 
          1.09310345        6106.26317072        1631.96399730        4026.37666707        6611.41808547        9156.29537161       11689.75446389       14202.04558439 
          1.10775862        5015.10456672        1678.04249270        3944.43256245        6531.81337106        9121.75401650       11726.93440600       14311.25532004 
          1.12241379        4056.27108473        1732.42697570        3859.20606463        6467.96456356        9125.28542259       11814.40487859       14465.04029795 
          1.13706897        3221.04630917        1794.57144856        3776.05258565        6429.31948285        9174.20481169       11949.85700325       14647.75616019 
          1.15172414        2500.56652168        1863.26910584        3701.39313118        6424.49830354        9271.11819560       12123.03985554       14836.06064344 
          1.16637931        1887.09874451        1936.64184396        3642.19620081        6459.93555733        9412.58871637       12316.16783555       15002.31903723 
          1.18103448        1372.84679735        2012.20458408        3605.29622495        6538.62251796        9588.65539734       12505.92079998       15119.52398563 
          1.19568966         950.91400090        2087.00275872        3596.63422253        6659.19054448        9783.43450572       12666.84070257       15166.76390036 
          1.21034483         614.48949681        2157.81479784        3620.52090996        6815.53071011        9976.82356986       12775.56767157       15134.00456145 
          1.22500000         357.39201319        2221.39675978        3679.03462372        6997.07000639       10147.10230192       12815.10382548       15024.98780708 
          1.23965517         173.71087919        2274.74314932        3771.64581022        7189.70829399       10274.02146755       12778.21724436       14857.41803970 
          1.25431034          57.88703940        2315.33203099        3895.13132682        7377.30425922       10341.84807002       12669.23145958       14660.21627754 
          1.26896552           4.80984717        2341.32612084        4043.79650560        7543.49827519       10341.82248565       12503.76487501       14468.31725120 
          1.28362069           9.49870689        2351.70805496        4209.97607175        7673.59997539       10273.58536106       12306.41338790       14316.08316739 
          1.29827586          67.51845873        2346.33541743        4384.74602951        7756.25952477       10145.32346162       12106.80003561       14230.74298344 
          1.31293103         174.43870238        2325.91554389        4558.74866966        7784.68510666        9972.62598078       11934.75109335       14227.25884545 
          1.32758621         326.39152061        2291.90562452        4723.02426873        7757.24980758        9776.27224858       11815.51490875       14305.67748311 
          1.34224138         519.46514760        2246.35736137        4869.74881741        7677.43897566        9579.35274233       11765.89658407       14451.44347596 
          1.35689655         750.26992546        2191.72480071        4992.79876623        7553.18976178        9404.21225382       11791.95812117       14638.49216572 
          1.37155172        1015.37753374        2130.66115408        5088.09595992        7395.76467294        9269.69729959       11888.59119340       14834.36035578 
          1.38620690        1311.80354610        2065.82365365        5153.71788039        7218.35053184        9189.09484813       12040.89905669       15006.18909989 
          1.40086207        1636.56583279        1999.70575385        5189.79264755        7034.59359070        9168.99584180       12226.99835902       15126.40379091 
          1.41551724        1987.02535159        1934.50672931        5198.21912301        6857.26061123        9209.14443154       12421.64142536       15177.03429654 
          1.43017241        2360.60807078        1872.04536530        5182.27007418        6697.17183252        9303.17129422       12599.98547753       15152.01321084 
          1.44482759        2754.97134034        1813.71691054        5146.13790621        6562.49202578        9439.99142844       12740.89688019       15057.25101662 
          1.45948276        3167.90956165        1760.48914046        5094.48000295        6458.40384893        9605.58083610       12829.34151351       14908.72958213 
          1.47413793        3597.34145070        1712.92984629        5032.00865385        6387.13444459        9784.83906331       12857.62824680       14729.18417492 
          1.48879310        4041.38308495        1671.25663191        4963.15652115        6348.26697937        9963.28375651       12825.49348826       14544.11560449 
          1.50344828        4498.19711605        1635.40007425        4891.83405240        6339.24704209       10128.39353875       12739.19797401       14377.87752752 
          1.51810345        4966.16915189        1605.07174033        4821.28071124        6355.99000989       10270.49968123       12609.92732058       14250.45124787 
          1.53275862        5443.69158520        1579.83065823        4754.00268293        6393.50299436       10383.20750168       12451.83816572       14175.30104605 
          1.54741379        5929.37631773        1559.14320408        4691.78133769        6446.45469446       10463.39377726       12280.07603366       14158.45768818 
          1.56206897        6421.82953531        1542.43365974        4635.73462740        6509.64670562       10510.87109935       12109.02931041       14198.75339565 
          1.57672414        6919.85409728        1529.12399165        4586.41200918        6578.36402957       10527.83002207       11950.99432637       14288.96859832 
          1.59137931        7422.25286880        1518.66296814        4543.90622191        6648.60000695       10518.17189673       11815.33195662       14417.55875867 
          1.60603448        7927.99084103        1510.54545708        4507.96766513        6717.16700438       10486.82950045       11708.11247198       14570.61390726 
          1.62068966        8436.04991156        1504.32343247        4478.11138367        6781.71219515       10439.15056006       11632.18170071       14733.74317294 
          1.63534483        8945.53372498        1499.61036807        4453.70999893        6840.66304109       10380.39149401       11587.54458429       14893.65640620 
          1.65000000        9455.58552240        1496.08075921        4434.06938972        6893.12671404       10315.34432774       11571.94746755       15039.30814866 
          1.66465517        9965.42849948        1493.46632143        4418.48636969        6938.76557379       10248.09819746       11581.54709370       15162.56031827 
          1.67931034       10474.34893499        1491.55019181        4406.28947525        6977.66641180       10181.92207897       11611.57253462       15258.39354104 
          1.69396552       10981.67688969        1490.16016408        4396.86509472        7010.21643474       10119.24627144       11656.91252322       15324.74800330 
          1.70862069       11486.82082063        1489.16172235        4389.67167758        7036.99432002       10061.71627838       11712.58747299       15362.10042588 
          1.72327586       11989.20976207        1488.45138589        4384.24488973        7058.68057220       10010.29342505       11774.08971754       15372.88901918 
          1.73793103       12488.35412347        1487.95068094        4380.19633465        7075.98835588        9965.37935426       11837.59478395       15360.88636023 
          1.75258621       12983.77436966        1487.60089306        4377.20811565        7089.61368329        9926.94655558       11900.05934469       15330.59995092 
          1.76724138       13475.06646116        1487.35864803        4375.02503460        7100.20255010        9894.66183362       11959.22899451       15286.75439506 
          1.78189655       13961.83416668        1487.19228747        4373.44579420        7108.33191192        9867.99470717       12013.58116192       15233.88561985 
          1.79655172       14443.74573349        1487.07896841        4372.31414497        7114.50129757        9846.30652973       12062.22740992       15176.05594333 
          1.81120690       14920.47984224        1487.00238722        4371.51059294        7119.13206009        9828.91942542       12104.79580851       15116.68394401 
          1.82586207       15391.76632528        1486.95102904        4370.94500610        7122.57169095        9815.16611292       12141.30950364       15058.47229946 
          1.84051724       15857.35036521        1486.91684143        4370.55027316        7125.10113057        9804.42311370       12172.07285568       15003.41224595 
          1.85517241       16317.01476203        1486.89424753        4370.27702627        7126.94350364        9796.13033251       12197.57207467       14952.84171443 
          1.86982759       16770.56294532        1486.87941975        4370.08936436        7128.27317822        9789.80019420       12218.39378254       14907.53633607 
          1.88448276       17217.82379724        1486.86975469        4369.96146081        7129.22441470        9785.01920903       12235.16208315       14867.81556581 
          1.89913793       17658.65077639        1486.86349612        4369.87492742        7129.89918767        9781.44450153       12248.49302379       14833.65060360 
          1.91379310       18092.91401860        1486.85946938        4369.81679932        7130.37396822        9778.79727951       12258.96409027       14804.76467880 
          1.92844828       18520.50869401        1486.85689457        4369.77802111        7130.70542522        9776.85480127       12267.09604261       14780.72019970 
          1.94310345       18941.34215678        1486.85525816        4369.75232377        7130.93508435        9775.44189507       12273.34418746       14760.99004964 
          1.95775862       19355.34422445        1486.85422414        4369.73540480        7131.09305694        9774.42278198       12278.09655046       14745.01276250 
          1.97241379       19762.45536729        1486.85357456        4369.72433496        7131.20095908        9773.69360194       12281.67664446       14732.23259311 
          1.98706897       20162.63443855        1486.85316866        4369.71713611        7131.27416359        9773.17588953       12284.34909923       14722.12658817 
          2.00172414       20555.85083321        1486.85291646        4369.71248198        7131.32350373        9772.81103696       12286.32671812       14714.22093310 
          2.01637931       20942.08800284        1486.85276051        4369.70949028        7131.35654987        9772.55574293       12287.77803983       14708.09909833 
          2.03103448       21321.34010612        1486.85266463        4369.70757770        7131.37854765        9772.37833250       12288.83468621       14703.40390715 
          2.04568966       21693.61169933        1486.85260590        4369.70636165        7131.39310489        9772.25586096       12289.59815192       14699.83553982 
          2.06034483       22058.91766453        1486.85257017        4369.70559238        7131.40268298        9772.17185267       12290.14576797       14697.14692129 
          2.07500000       22417.28092222        1486.85254847        4369.70510829        7131.40895051        9772.11458310       12290.53581914       14695.13777927 
          2.08965517       22768.73324077        1486.85253541        4369.70480506        7131.41302949        9772.07577218       12290.81177444       14693.64813881 
          2.10431034       23113.31371228        1486.85252752        4369.70461610        7131.41567069        9772.04962219       12291.00575069       14692.55193535 
          2.11896552       23451.06757689        1486.85252284        4369.70449881        7131.41737203        9772.03209937       12291.14125234       14691.75102327 
          2.13362069       23782.04793635        1486.85252002        4369.70442642        7131.41846292        9772.02042134       12291.23534237       14691.16987283 
          2.14827586       24106.31087934        1486.85251838        4369.70438185        7131.41915880        9772.01267786       12291.30029791       14690.75095214 
          2.16293103       24423.92126185        1486.85251737        4369.70435460        7131.41960097        9772.00756995       12291.34489287       14690.45088407 
          2.17758621       24734.94405563        1486.85251681        4369.70433794        7131.41988040        9772.00421596       12291.37534302       14690.23724879 
          2.19224138       25039.45361346        1486.85251645        4369.70432786        7131.42005650        9772.00202487       12291.39602903       14690.08604070 
          2.20689655       25337.52232096        1486.85251627        4369.70432172        7131.42016675        9772.00059910       12291.41000964       14689.97961515 
          2.22155172       25629.23183301        1486.85251614        4369.70431806        7131.42023576        9771.99967626       12291.41941453       14689.90511760 
          2.23620690       25914.66086883        1486.85251609        4369.70431582        7131.42027853        9771.99908066       12291.42570993       14689.85323803 
          2.25086207       26193.89629362        1486.85251603        4369.70431452        7131.42030518        9771.99869866       12291.42990660       14689.81729427 
          2.26551724       26467.02238087        1486.85251603        4369.70431370        7131.42032148        9771.99845385       12291.43269026       14689.79250893 
          2.28017241       26734.12924592        1486.85251600        4369.70431326        7131.42033166        9771.99829833       12291.43453052       14689.77550103 
          2.29482759       26995.30616648        1486.85251601        4369.70431295        7131.42033775        9771.99819916       12291.43574049       14689.76387982 
          2.30948276       27250.64477788        1486.85251599        4369.70431282        7131.42034162        9771.99813689       12291.43653449       14689.75597680 
          2.32413793       27500.23874531        1486.85251600        4369.70431269        7131.42034383        9771.99809721       12291.43705196       14689.75062214 
          2.33879310       27744.18009518        1486.85251599        4369.70431266        7131.42034532        9771.99807272       12291.43738948       14689.74701160 
          2.35344828       27982.56570611        1486.85251600        4369.70431260        7131.42034608        9771.99805696       12291.43760735       14689.74458389 
          2.36810345       28215.48765060        1486.85251598        4369.70431261        7131.42034667        9771.99804755       12291.43774896       14689.74296018 
          2.38275862       28443.04469360        1486.85251600        4369.70431257        7131.42034689        9771.99804129       12291.43783928       14689.74187541 
          2.39741379       28665.32881012        1486.85251598        4369.70431259        7131.42034716        9771.99803780       12291.43789811       14689.74115534 
          2.41206897       28882.43939123        1486.85251600        4369.70431256        7131.42034719        9771.99803525       12291.43793496       14689.74067599 
          2.42672414       29094.46829933        1486.85251598        4369.70431258        7131.42034734        9771.99803407       12291.43795939       14689.74035926 
          2.44137931       29301.51438230        1486.85251600        4369.70431256        7131.42034730        9771.99803296       12291.43797426       14689.74014700 
          2.45603448       29503.66946528        1486.85251598        4369.70431258        7131.42034741        9771.99803265       12291.43798478       14689.74000481 
          2.47068966       29701.03078464        1486.85251599        4369.70431256        7131.42034735        9771.99803209       12291.43799101       14689.73990472 
          2.48534483       29893.69026384        1486.85251598        4369.70431259        7131.42034746        9771.99803212       12291.43799652       14689.73982955 
